#
#  26 kVp Tungsten, 0.7 mm inherent Aluminum filtration
#
#     Mean energy: 18.150 keV
#     1st HVL:      0.415 mm Al
#     photon fluence transmission factor: XXX
#     photon fluence * mm^2: 1.2669e+05
#
#  Spectrum generated using SPEKTR
#
#  Energy [eV]    Num. photons/(mm^2*keV)
# ----------------------------------------------------
5.0e3       0.000000198
6.0e3       0.013202518
7.0e3       6.199864362
8.0e3       265.363787062
9.0e3       2686.169547664
10.0e3       10190.619254493
11.0e3       24492.919078085
12.0e3       46358.365102592
13.0e3       74745.399819048
14.0e3       110975.955227885
15.0e3       147722.746786747
16.0e3       180788.922336297
17.0e3       207654.298345603
18.0e3       227256.486825252
19.0e3       236095.382438251
20.0e3       235124.877911630
21.0e3       224291.017638242
22.0e3       201233.672545447
23.0e3       169004.047649887
24.0e3       123626.326425056
25.0e3       76878.124797431
26.0e3       -0.000000001

