#
#  31 kVp Tungsten, 0.7 mm Aluminum filtration
#
#     Mean energy: 20.359 keV
#     1st HVL:      0.512 mm Al
#     photon fluence transmission factor: XXX
#     photon fluence * mm^2: 2.1372e+05
#
#  Spectrum generated using SPEKTR
#
#  Energy [eV]    Num. photons/(mm^2*keV)
# ----------------------------------------------------
5.0e3       0.000000182
6.0e3       0.012661726
7.0e3       6.138616101
8.0e3       278.911822442
9.0e3       2905.178673377
10.0e3       10732.118316651
11.0e3       25366.428921948
12.0e3       48378.640746385
13.0e3       79839.828675886
14.0e3       121466.021062677
15.0e3       167979.152066567
16.0e3       212337.964050995
17.0e3       251189.240680304
18.0e3       284672.469930306
19.0e3       308452.903229101
20.0e3       328294.256510501
21.0e3       339660.307636726
22.0e3       341143.001999837
23.0e3       332920.007847197
24.0e3       317916.226592636
25.0e3       297769.539610951
26.0e3       267255.264391238
27.0e3       226322.923031317
28.0e3       180094.991720425
29.0e3       127640.881956267
30.0e3       78416.541375088
31.0e3       -0.0000000001
