#
#  33 kVp Tungsten, 0.7 mm Aluminum filtration
#
#     Mean energy: 21.210 keV
#     1st HVL:      0.548 mm Al
#     photon fluence transmission factor: XXX
#     photon fluence * mm^2: 2.5281e+05
#
#  Spectrum generated using SPEKTR
#
#  Energy [eV]    Num. photons/(mm^2*keV)
# ----------------------------------------------------
5.0e3       0.000000176
6.0e3       0.012392816
7.0e3       6.119031328
8.0e3       285.029129253
9.0e3       2985.589195563
10.0e3       10890.315209731
11.0e3       25453.037546694
12.0e3       48626.293366809
13.0e3       80821.654908829
14.0e3       125259.422596796
15.0e3       174784.277630031
16.0e3       221539.019100672
17.0e3       264555.231747975
18.0e3       303441.776729452
19.0e3       332885.190241524
20.0e3       355688.028832625
21.0e3       373024.277155193
22.0e3       379443.941014341
23.0e3       380699.876692826
24.0e3       376070.721153370
25.0e3       359776.736634539
26.0e3       337714.877083181
27.0e3       304809.061937628
28.0e3       270578.072084988
29.0e3       228919.292425754
30.0e3       183255.236937442
31.0e3       138642.115770028
32.0e3       82010.441173103
33.0e3       -0.0000000001
