#
#  35 kVp Tungsten, 0.7 mm Aluminum filtration
#
#     Mean energy: 22.009 keV
#     1st HVL:      0.583 mm Al
#     photon fluence transmission factor: XXX
#     photon fluence * mm^2: 2.9382e+05
#
#  Spectrum generated using SPEKTR
#
#  Energy [eV]    Num. photons/(mm^2*keV)
# ----------------------------------------------------
5.0e3       0.000000171
6.0e3       0.012185346
7.0e3       6.082722479
8.0e3       288.685673280
9.0e3       3058.302956867
10.0e3       11096.039654238
11.0e3       25641.926833044
12.0e3       48901.973463756
13.0e3       81673.521221954
14.0e3       128454.076080983
15.0e3       180493.841183278
16.0e3       230113.663036476
17.0e3       277281.483072237
18.0e3       321059.176613127
19.0e3       356760.481529940
20.0e3       382170.675885323
21.0e3       403350.095888503
22.0e3       415029.334469996
23.0e3       423679.663036024
24.0e3       425568.154533248
25.0e3       412361.359596633
26.0e3       397885.026708390
27.0e3       374104.972681368
28.0e3       350618.096247024
29.0e3       320544.346872015
30.0e3       276841.954314245
31.0e3       232754.446662599
32.0e3       183151.229671636
33.0e3       129884.917188195
34.0e3       73702.555272949
35.0e3       -0.0000000001
