#
#  38 kVp Tungsten, 0.7 mm inherent Aluminum filtration
#
#     Mean energy: 23.195 keV
#     1st HVL:      0.634 mm Al
#     photon fluence transmission factor: XXX
#     photon fluence * mm^2: 3.5938e+05
#
#  Spectrum generated using SPEKTR
#
#  Energy [eV]    Num. photons/(mm^2*keV)
# ----------------------------------------------------
5.0e3       0.000000164
6.0e3       0.011888509
7.0e3       6.037758187
8.0e3       294.912316570
9.0e3       3155.302061655
10.0e3       11359.358725188
11.0e3       26047.337681259
12.0e3       49332.953348649
13.0e3       82827.229929493
14.0e3       130697.385441391
15.0e3       185138.487817503
16.0e3       241252.998377031
17.0e3       295438.994258917
18.0e3       344954.269894266
19.0e3       388334.586596806
20.0e3       421992.851583230
21.0e3       447307.373236276
22.0e3       468048.115826354
23.0e3       481364.464029527
24.0e3       483672.752487753
25.0e3       478904.351583920
26.0e3       478750.149043009
27.0e3       468578.741903981
28.0e3       448311.910522387
29.0e3       426781.172266502
30.0e3       392076.592334526
31.0e3       356055.943039594
32.0e3       320026.646578973
33.0e3       277568.961773431
34.0e3       226330.243949213
35.0e3       184533.883115751
36.0e3       138754.784952865
37.0e3       78017.036591846
38.0e3       -0.000000001
