#
#  39 kVp Tungsten, 0.7 mm Aluminum filtration
#
#     Mean energy: 23.583 keV
#     1st HVL:      0.651 mm Al
#     photon fluence transmission factor: XXX
#     photon fluence * mm^2: 3.8204e+05
#
#  Spectrum generated using SPEKTR
#
#  Energy [eV]    Num. photons/(mm^2*keV)
# ----------------------------------------------------
5.0e3       0.000000162
6.0e3       0.011832115
7.0e3       6.014029070
8.0e3       296.058273593
9.0e3       3192.434309162
10.0e3       11440.991061357
11.0e3       26103.839498355
12.0e3       49456.090458619
13.0e3       83116.495557473
14.0e3       131076.592539681
15.0e3       186260.864282516
16.0e3       244531.387690211
17.0e3       300961.645513251
18.0e3       352359.955184734
19.0e3       397525.016042940
20.0e3       434132.095442367
21.0e3       461093.523845910
22.0e3       484617.780584929
23.0e3       498980.004895592
24.0e3       501319.518890996
25.0e3       499666.413054663
26.0e3       503293.999854449
27.0e3       496162.851828948
28.0e3       475796.524713738
29.0e3       456471.306578651
30.0e3       426195.730621333
31.0e3       393601.746258166
32.0e3       361513.822858860
33.0e3       323301.446449939
34.0e3       275869.417572799
35.0e3       234581.402595000
36.0e3       188312.319240246
37.0e3       129997.339835523
38.0e3       78564.994203516
39.0e3       -0.0000000001
