#
#  41 kVp Tungsten, 0.7 mm Aluminum filtration
#
#     Mean energy: 24.340 keV
#     1st HVL:      0.684 mm Al
#     photon fluence transmission factor: XXX
#     photon fluence * mm^2: 4.2857e+05
#
#  Spectrum generated using SPEKTR
#
#  Energy [eV]    Num. photons/(mm^2*keV)
# ----------------------------------------------------
5.0e3       0.000000157
6.0e3       0.011623924
7.0e3       5.958575555
8.0e3       299.807546026
9.0e3       3255.018507162
10.0e3       11584.737935199
11.0e3       26376.450455292
12.0e3       49686.742806398
13.0e3       83534.044203080
14.0e3       132022.614458572
15.0e3       189200.877719025
16.0e3       250785.229794288
17.0e3       311066.922276502
18.0e3       366916.232192693
19.0e3       414244.328368675
20.0e3       455218.916797677
21.0e3       486902.336320229
22.0e3       514765.173137750
23.0e3       532603.439948337
24.0e3       538858.398977819
25.0e3       542342.483923437
26.0e3       548900.304199111
27.0e3       543379.081921404
28.0e3       525455.352590006
29.0e3       512926.667522471
30.0e3       492550.728594171
31.0e3       465367.647143459
32.0e3       438384.747670395
33.0e3       407236.285717163
34.0e3       366209.342997253
35.0e3       326207.469518639
36.0e3       281056.381019324
37.0e3       232117.559521244
38.0e3       180933.464013538
39.0e3       123591.428087237
40.0e3       77392.542793103
41.0e3       -0.0000000001
