#
#  42 kVp Tungsten, 0.7 mm inherent Aluminum filtration
#
#     Mean energy: 24.724 keV
#     1st HVL:      0.700 mm Al
#     photon fluence transmission factor: XXX
#     photon fluence * mm^2: 4.5272e+05
#
#  Spectrum generated using SPEKTR
#
#  Energy [eV]    Num. photons/(mm^2*keV)
# ----------------------------------------------------
5.0e3       0.000000155
6.0e3       0.011526450
7.0e3       5.947719576
8.0e3       301.494649420
9.0e3       3280.015196383
10.0e3       11603.365448150
11.0e3       26332.939931908
12.0e3       49777.717238390
13.0e3       83648.912003176
14.0e3       132626.684713391
15.0e3       191014.684054123
16.0e3       253688.799342609
17.0e3       315567.948328350
18.0e3       373923.333775386
19.0e3       421862.897000447
20.0e3       464231.964373091
21.0e3       498894.059785879
22.0e3       528301.442221173
23.0e3       548725.621813646
24.0e3       558866.938075935
25.0e3       564256.493321468
26.0e3       570136.827596244
27.0e3       563548.219579008
28.0e3       548551.206032239
29.0e3       540469.548180301
30.0e3       524811.046443847
31.0e3       499497.860876347
32.0e3       473943.263956947
33.0e3       445378.275730384
34.0e3       406442.645816160
35.0e3       367754.087265950
36.0e3       324536.372419887
37.0e3       281221.236858282
38.0e3       230773.681652414
39.0e3       175858.683955539
40.0e3       132422.275981588
41.0e3       80764.141349474
42.0e3       -0.000000001
