#
#  46 kVp Tungsten, 0.7 mm inherent Aluminum filtration
#
#     Mean energy: 26.196 keV
#     1st HVL:      0.763 mm Al
#     photon fluence transmission factor: XXX
#     photon fluence * mm^2: 5.5121e+05
#
#  Spectrum generated using SPEKTR
#
#  Energy [eV]    Num. photons/(mm^2*keV)
# ----------------------------------------------------
5.0e3       0.000000148
6.0e3       0.011110518
7.0e3       5.850235817
8.0e3       306.943481302
9.0e3       3391.411938902
10.0e3       11857.850147148
11.0e3       26423.466565869
12.0e3       49759.798032089
13.0e3       83571.774502382
14.0e3       134496.109180398
15.0e3       196302.877603440
16.0e3       261806.471236325
17.0e3       329550.831291452
18.0e3       395881.310236735
19.0e3       449580.514723969
20.0e3       498516.462535256
21.0e3       543556.732631632
22.0e3       578217.730051008
23.0e3       609580.001094469
24.0e3       633661.950814279
25.0e3       645315.829111230
26.0e3       649435.321155665
27.0e3       642262.590918618
28.0e3       642591.376983961
29.0e3       643456.476152035
30.0e3       631522.014433338
31.0e3       615435.294959959
32.0e3       599937.371570395
33.0e3       577829.389375854
34.0e3       544999.647236127
35.0e3       512790.935094532
36.0e3       480460.373804311
37.0e3       451303.378034912
38.0e3       411539.777478093
39.0e3       371498.981438062
40.0e3       330241.448779385
41.0e3       277769.545549019
42.0e3       226848.517225733
43.0e3       178518.380704761
44.0e3       125095.035030159
45.0e3       74126.640891122
46.0e3       -0.000000001
